Signal Recording: Id=eda68de99dee4e9299d31c34fee9a5f9 (started 16:02:56 and finished 16:03:15)

Time	J1	J2	J3	J4	J5	J6
0	-44.0822867900724	10.6071548612092	5.57009653466038	195.152684059981	-70.73263308233	-80.3051022229678
0.072	-44.0822833749778	10.6071548612092	5.57009653466038	195.152684059981	-70.73263308233	-80.3051022229678
0.096	-44.0493277122325	10.5952899688473	5.59057899132078	195.153544663817	-70.7225312325475	-80.3004235433864
0.12	-43.871373963597	10.5312142566961	5.70119475870279	195.158230173587	-70.6679580210791	-80.2751245227007
0.144	-43.4329748566252	10.3733600472406	5.97370137733972	195.169759532906	-70.5335194076458	-80.2127922163351
0.168	-42.6920427656513	10.1065737120336	6.43425975241321	195.189239232419	-70.3063131649053	-80.1074570389552
0.192	-41.6580443328652	9.73426266169711	7.07698695661376	195.216437045694	-69.9892352930658	-79.960450877449
0.216	-40.3482872576236	9.26265944384889	7.89112501511177	195.250888519868	-69.5875860189232	-79.7742394301069
0.24	-38.7682254459787	8.69372773787527	8.87328145832386	195.292443390778	-69.1030592293917	-79.5496013384944
0.264	-36.9175651997962	8.02736082207049	10.0236449702259	195.341101658425	-68.5355456414445	-79.2864887912872
0.288	-34.7950361038905	7.26310363508108	11.3429958999304	195.396917964323	-67.8846627644881	-78.9847242035668
0.312	-32.4542756338138	6.42026682923797	12.7979995091933	195.458485289501	-67.166857694044	-78.6519300664471
0.336	-30.0542769330656	5.55610147705103	14.2898246682718	195.52160989781	-66.4308911505968	-78.31072113627
0.36	-27.6542816474119	4.69193612486408	15.7816489735766	195.584720845741	-65.6949177769604	-77.9695122060928
0.384	-25.2542829466636	3.82777034579031	17.2734749864287	195.64784545405	-64.9589512335131	-77.6282964457265
0.408	-22.85428766101	2.96360499360337	18.7652992917335	195.71097006236	-64.2229846900659	-77.2870875155493
0.432	-20.4542889602617	2.09943964141642	20.2571253045856	195.774081010291	-63.4870113164296	-76.9458785853722
0.456	-18.0542919670608	1.23527396906436	21.7489479023431	195.8372056186	-62.7510447729823	-76.6046628250058
0.48	-15.6542949738598	0.371108616877417	23.2407739151952	195.900330226909	-62.0150782295351	-76.2634470646395
0.504	-13.2542971268852	-0.493056842031234	24.7325999280472	195.963427514462	-61.2791048558987	-75.9222449646515
0.528	-10.8542992799106	-1.35722230093989	26.224424233352	196.026552122771	-60.5431383124515	-75.5810292042852
0.552	-8.45430228670965	-2.22138775984854	27.7162502462041	196.08967673108	-59.8071717690043	-75.2398134439189
0.576	-6.05430486662187	-3.08555332547889	29.2080745515089	196.152787679011	-59.0712052255571	-74.8986113439309
0.6	-3.65430744653409	-3.94971867766584	30.699900564361	196.21591228732	-58.3352318519207	-74.5573955835646
0.624	-1.25431023988972	-4.81388402985278	32.1917231621185	196.27903689563	-57.5992584782843	-74.2161798231982
0.648	1.14568718019806	-5.67804980892655	33.683545759876	196.342147843561	-56.8632987650263	-73.8749708930211
0.672	3.54568460028585	-6.54221473422667	35.1753717727281	196.405258791492	-56.1273253913899	-73.5337619628439
0.696	5.94568180693022	-7.40638051330044	36.6671977855802	196.468383399801	-55.3913554328481	-73.1925462024776
0.72	8.345679227018	-8.27054629237421	38.1590237984323	196.531494347732	-54.6553854743063	-72.8513372723004
0.744	10.745676220219	-9.13471121767433	39.6508498112844	196.594618956041	-53.9194223459537	-72.5101283421233
0.768	13.1456740671936	-9.9988769967481	41.1426724090419	196.65774356435	-53.1834489723173	-72.1689125817569
0.792	15.5456710603945	-10.8630419220482	42.634498421894	196.720854512281	-52.4474790137755	-71.8277036515798
0.816	17.9456680535955	-11.727207701122	44.1263244347461	196.78397912059	-51.7115158854229	-71.4864878912135
0.84	20.3456650467964	-12.5913734801958	45.6181504475982	196.8471037289	-50.9755459268811	-71.1452789610363
0.864	22.7445692097302	-13.455144815845	47.1092934415333	196.910173695696	-50.2399106476086	-70.8042271252101
0.888	25.1283427961051	-14.3134682218574	48.5910346800758	196.972874832276	-49.5089164818772	-70.465313138594
0.912	27.3144199720485	-15.1001378208346	49.9490163059523	197.029879591089	-48.8388612639206	-70.1529754180385
0.936	29.3419155233899	-15.7485532919533	51.0581980460274	196.997764041612	-48.2715013552297	-69.5963423214392
0.96	31.457751033909	-16.2326412418306	51.859222141319	196.76266893038	-47.8077280954912	-68.3822557059019
0.984	33.7517656893061	-16.5470348493263	52.3381037795015	196.287465349065	-47.4451201826444	-66.3739273729188
1.008	36.1556610129759	-16.7160769086423	52.5429855489398	195.621617527638	-47.1720150686815	-63.7419822781461
1.032	38.5738826584297	-16.8112965758614	52.6105634405879	194.873465926711	-46.947137920448	-60.8483043343785
1.056	40.9738950195563	-16.903097733401	52.672636199765	194.128128363723	-46.7257544139749	-57.9675286179531
1.08	43.3738971353991	-16.9949057211297	52.7347192042258	193.382777140356	-46.5043640773127	-55.0867904675681
1.104	45.7738924210528	-17.0867137088584	52.7968022086866	192.637453237746	-46.2829771557451	-52.2060591473722
1.128	48.173891121801	-17.1785199890399	52.858888628242	191.892115674757	-46.0615902341775	-49.3253278271764
1.152	50.5738864074547	-17.2703279767686	52.9209716327029	191.146778111769	-45.8402033126099	-46.4445999220751
1.176	52.9738816931084	-17.3621359644973	52.9830546371637	190.401454209159	-45.6188129759477	-43.5638686018793
1.2	55.3738838089512	-17.4539456597733	53.0451376416245	189.65611664617	-45.3974294694746	-40.6831372816834
1.224	57.7738790946049	-17.5457519399548	53.1072206460854	188.910779083182	-45.176042547907	-37.8024059614876
1.248	60.1738777953531	-17.6375599276835	53.1693070656408	188.165441520193	-44.9546522112448	-34.9216746412918
1.272	62.5738696659122	-17.7293679154122	53.2313900701016	187.420117617583	-44.7332687047717	-32.0409399060013
1.296	64.9738751968496	-17.8211741955937	53.293476489657	186.674766394216	-44.5118783681095	-29.1602085858055
1.32	67.3738670674087	-17.9129821833224	53.3555594941179	185.929442491606	-44.2904914465419	-26.2794789731569
1.344	69.773865768157	-18.0047901710511	53.4176424985787	185.184118588996	-44.0691045249743	-23.3987459454138
1.368	72.1738644689052	-18.0965981587798	53.4797255030395	184.438767365629	-43.8477176034067	-20.5180146252179
1.392	74.5738563394643	-18.1884044389613	53.5418085075003	183.693443463019	-43.6263272667445	-17.6372850125694
1.416	76.9738550402125	-18.28021242669	53.6038915119612	182.948105900031	-43.4049403451768	-14.7565536923736
1.44	79.3738537409608	-18.3720204144187	53.665974516422	182.202768337042	-43.1835534236092	-11.8758223721777
1.464	81.7738592718982	-18.4638284021474	53.7280575208828	181.457444434432	-42.9621665020416	-8.99509019820822
1.488	84.1738511424573	-18.5556346823289	53.7901473555328	180.712106871444	-42.7407761653794	-6.11435887801238
1.512	86.5738498432055	-18.6474443776049	53.8522303599937	179.966769308455	-42.5193926589063	-3.23362777125995
1.536	88.9738417137646	-18.7392523653336	53.9143133644545	179.221431745467	-42.2980023222441	-0.352896397703254
1.56	91.3738404145129	-18.8310586455151	53.9763963689153	178.476107842856	-42.0766154006765	2.52783508257515
1.584	93.7738391152611	-18.9228666332438	54.0384793733762	177.73075661949	-41.8552284791089	5.40856597588417
1.608	96.0090731626612	-19.0083720639159	54.0963003397949	177.036604494141	-41.6490421435391	8.0915330106437
1.632	97.8492695590352	-19.078763993502	54.1439033432153	176.465108905908	-41.4792914520968	10.3003316646348
1.656	99.3442067230542	-19.1308561387544	54.1833203649155	175.977296795386	-41.3483054992889	12.1159163281084
1.68	100.739853427109	-19.1043874481733	54.231111198538	175.174640284882	-41.3279754412243	14.1234788261307
1.704	102.142781112819	-18.9351592662025	54.3000312223581	173.708362594621	-41.5011617178192	16.7351109383118
1.728	103.548475025142	-18.6039087518352	54.392751040341	171.491611039115	-41.8941878781346	20.0248288633661
1.752	104.985512675567	-18.0965076587733	54.5122417847758	168.445128103236	-42.5250958668633	24.0902923535938
1.776	106.371822511026	-17.4562064523886	54.6495900587955	164.808885653283	-43.3384621139851	28.6399189257798
1.8	107.623768865133	-16.7670318273979	54.7898650688747	161.012147418213	-44.223603404	33.2102853673804
1.824	108.78559770333	-16.0475243323031	54.9317451734088	157.119089855467	-45.1535507349701	37.7843879224571
1.848	109.885647480485	-15.3090084207482	55.0744619761162	153.168262552722	-46.1117955396717	42.3536034771826
1.872	110.943548160272	-14.5566511308402	55.2178754581189	149.173981586476	-47.0905343269778	46.92313322061
1.896	111.973643139947	-13.7956596280477	55.361681675999	145.153349750413	-48.082110454829	51.4907949072993
1.92	112.990897363983	-13.030758695729	55.5056552335137	141.12087436633	-49.0795127340422	56.0572578957893
1.944	114.006785550185	-12.2662095181526	55.6495365834746	137.090693925807	-50.0764915415269	60.6204150727211
1.968	115.023295283601	-11.5026182746073	55.7932915749358	133.064652579921	-51.0721487074071	65.1804132871616
1.992	116.039791356639	-10.7390278848356	55.9370499814917	129.038611234036	-52.0678024581928	69.7404115016022
2.016	117.056301090055	-9.97543749506391	56.0808083880475	125.01256988815	-53.0634596240731	74.3004097160428
2.04	118.072797163093	-9.21184625151858	56.2245667946034	120.986528542264	-54.0591099597642	78.8604079304834
2.064	119.08930689651	-8.44825586174689	56.3683286162538	116.960487196379	-55.0547637105499	83.420406144924
2.088	120.105802969548	-7.68466547197521	56.5120870228096	112.934445850493	-56.0504208764301	87.9803975291754
2.112	121.122312702964	-6.92107422842988	56.6558420142709	108.908411334796	-57.0460712121212	92.540395743616
2.136	122.138808776002	-6.1574838386582	56.7996004208267	104.882369988911	-58.0417249629069	97.1004007882458
2.16	123.155318509418	-5.39389302199969	56.9433588273826	100.856328643025	-59.0373821287872	101.660399002686
2.184	124.171814582456	-4.63030220534118	57.0871172339384	96.8302872971393	-60.0330392946675	106.220390386938
2.208	125.188310655494	-3.8667118155695	57.2308756404943	92.8042459512536	-61.0286896303586	110.780388601378
2.232	126.204834049289	-3.10312099891099	57.3746340470501	88.7781977751788	-62.0243399660497	115.340393646008
2.256	127.221330122327	-2.33953039569589	57.5183890385114	84.7521564292931	-63.0199971319299	119.900391860449
2.28	128.237839855743	-1.57593957903739	57.6621508601618	80.7261150834074	-64.015647467621	124.460390074889
2.304	129.254335928781	-0.81234897582229	57.8059058516231	76.7000737375217	-65.0113046335013	129.020374628952
2.328	130.270845662198	-0.0487582858958079	57.9496676732735	72.6740323916361	-66.0069617993816	133.580372843392
2.352	131.287341735236	0.714832390690461	58.0934226647348	68.6479910457504	-67.0026189652618	138.140371057833
2.376	132.303673883733	1.48304996682056	58.2329565992889	64.6216969828654	-67.9984878670064	142.700738102489
2.4	133.279735236885	2.29789249529844	58.2989020757254	60.7399365530071	-68.9610732569254	147.09853298452
2.424	134.201769793702	3.25851015040631	58.1926379926184	57.035778117042	-69.8857237761943	151.297938191919
2.448	134.953718979807	4.34064882367975	57.8421604957375	53.9567117637274	-70.6637779453071	154.793055273241
2.472	135.456243317801	5.4389487917465	57.2766720588792	51.8258293464668	-71.2138677206816	157.217253334218
2.496	135.779516171218	6.65012446603688	56.4672297554356	50.35667273147	-71.6082565037365	158.895649379344
2.52	135.938017541097	7.9361590136306	55.4590699282796	49.5013827832226	-71.8571964084159	159.88171012944
2.544	135.962947731568	9.239026135547	54.3285506772374	49.1522576637974	-71.9847228704092	160.29622064979
2.568	135.923332634382	10.5334579738384	53.1535259135635	49.0510035244466	-72.0522392903548	160.430584131143
2.592	135.87651851781	11.8223957787162	51.9775654139732	48.9782517645022	-72.1127001248877	160.532668138478
2.616	135.829786363509	13.1092256164614	50.8035276126343	48.9056195328683	-72.1730585065831	160.634574560894
2.64	135.783136171478	14.3939509021686	49.6314056793576	48.8331034144502	-72.2333212656302	160.736303398392
2.664	135.736554281338	15.6765528528176	48.4612269348997	48.7607102394373	-72.2934884020288	160.837881971729
2.688	135.690040693091	16.9569862184051	47.2930255302066	48.6884365927348	-72.3535462554007	160.939282960147
2.712	135.643622727491	18.2352100177961	46.1268390313186	48.6162893045319	-72.4135016559351	161.040506363646
2.736	135.597286724162	19.5111764396664	44.9627118344654	48.5442717899233	-72.4733546036319	161.141565842606
2.76	135.551019022724	20.7849025594889	43.800626864174	48.4723772187198	-72.5331050984912	161.242434076269
2.784	135.504846943935	22.056431065946	42.6405499694986	48.4006090060159	-72.5927394801346	161.343124725013
2.808	135.458743167037	23.3257295156391	41.4825050561013	48.328963736717	-72.6522850693188	161.443651449217
2.832	135.412735012788	24.5927654651696	40.3265262749279	48.2574482410124	-72.711714545287	161.543986928125
2.856	135.366808820809	25.857506471139	39.1726409467351	48.1860659339966	-72.7710415684178	161.644158482492
2.88	135.320950930722	27.1199200901487	38.0208798073742	48.1148099854804	-72.8302593085218	161.744125131185
2.904	135.275188663282	28.3799755863474	36.8712633474127	48.0436838105585	-72.8893609354099	161.843927855337
2.928	135.229522018492	29.6376900352081	35.7237881517559	47.9726976545146	-72.9483601094605	161.943525673814
2.952	135.183923675593	30.893140276359	34.5783859185123	47.9018344418757	-73.0072431702951	162.042945907373
2.976	135.138407294964	32.1462921588542	33.4350703080601	47.8311044179256	-73.0660306084814	162.142188556013
3	135.092972876605	33.3971320223153	32.2938652260615	47.7605007524752	-73.1247019334518	162.241253619735
3.024	135.047634080894	34.6456393761749	31.1547911630839	47.6900336908082	-73.1832639753955	162.34012743816
3.048	135.002377247454	35.8917903147708	30.0178686096948	47.6196964027354	-73.2417167343125	162.438810011288
3.072	134.957202376283	37.1355609324409	28.8831146413672	47.5494923033514	-73.3000602102028	162.53730133912
3.096	134.912123127761	38.3769580593745	27.7505258430065	47.4794248077508	-73.3582875728771	162.635615082033
3.12	134.867125841509	39.6160260918011	26.6200612334777	47.4094870857445	-73.4164124827139	162.733751240028
3.144	134.815216403817	40.8521912938304	25.4817180007413	47.3353419672094	-73.4647087503351	162.826122718363
3.168	134.731614888376	42.0719503814734	24.3099068410718	47.2419971869174	-73.4676935430024	162.891870119313
3.192	134.588577066778	43.2483753339272	23.0860393946431	47.1130568757659	-73.3844198766416	162.90621351657
3.216	134.36867229626	44.3512903754388	21.8098834350233	46.9386753160663	-73.1879153342203	162.852255022127
3.24	134.062351972363	45.3378155783987	20.5039085770346	46.7143684886285	-72.8608722163818	162.717891540775
3.264	133.679656473168	46.1818186390426	19.2055630403487	46.4472636958514	-72.414580825824	162.508150091742
3.288	133.243357649365	46.8919499919543	17.9416057985866	46.1512569576014	-71.8813001459969	162.241881997138
3.312	132.774260257169	47.4926787898352	16.7222770128613	45.8385025955065	-71.2921416885699	161.938061522478
3.336	132.292322109333	48.0409380745122	15.52871511578	45.5195327612669	-70.6801977200718	161.61850429197
3.36	131.810342980362	48.5856388306315	14.3381175207984	45.2006414742028	-70.0678166194668	161.298523589733
3.384	131.327858417392	49.1309508886816	13.1462392653474	44.8814155078693	-69.454800311269	160.978215038416
3.408	130.844841099667	49.676860588284	11.9530572975386	44.5618412018882	-68.8411214747217	160.657551317262
3.432	130.361291027187	50.2233679294388	10.7585639334091	44.2419151411648	-68.2267596192574	160.33654608665
3.456	129.877208199951	50.7704763272406	9.56274978144892	43.9216339106045	-67.6117215750652	160.015172025822
3.48	129.399081297672	51.3108569887099	8.38164956450822	43.60529711429	-67.0042513804735	159.697745814335
3.504	129.005088665589	51.7561511716489	7.40837919740632	43.3446195295219	-66.5036736463924	159.436190550259
3.528	128.749175137767	52.0453755320531	6.77622384538048	43.175309385281	-66.1785361513323	159.266310085222
3.552	128.638853922293	52.1700640504462	6.50369630928921	43.1023185687157	-66.0383738393745	159.193063136563
3.576	128.615125845116	52.1968862033169	6.44506895366158	43.0866159638138	-66.0082185541888	159.177312720337
5.64	128.615125845116	52.1957455617255	6.44533405037874	43.0868823411914	-66.0075765164069	159.176643361798
5.664	128.615125845116	52.1397516709097	6.45826701357216	43.0999860591141	-65.9761371556573	159.144445850051
5.688	128.615125845116	51.9499099780238	6.50151278318892	43.1447681944073	-65.8691285819307	159.034698370467
5.712	128.615125845116	51.6857558269682	6.56011964824904	43.2079918404595	-65.7192400805948	158.880486359387
5.736	128.615125845116	51.4129922224637	6.61869577745789	43.2744256754216	-65.563211239195	158.719416838379
5.76	128.615125845116	51.1411506934972	6.67507984282999	43.3418191519622	-65.4064242467974	158.556994939916
5.784	128.615125845116	50.8913467698877	6.72511353982127	43.4048242319609	-65.2612144250429	158.406020438503
5.808	128.615125845116	50.7316398716199	6.75621181799917	43.4456448575355	-65.167811588143	158.308649261695
5.832	128.615125845116	50.6840061323482	6.76535317242958	43.4579016320011	-65.1398624540593	158.279470693561
5.856	128.615125845116	50.6837295096869	6.76540610639565	43.4579733489874	-65.1397053597084	158.27930676902
5.904	128.619401543537	50.6801641509401	6.77370435935039	43.4611562171406	-65.1441654732364	158.281751976743
5.928	128.687935661669	50.6231354864651	6.90648323681544	43.5120445415518	-65.215581931198	158.320943602201
5.952	128.893688280226	50.4519231345404	7.30511100602395	43.664835873285	-65.4299883994339	158.438559459708
5.976	129.252327853165	50.1535019244188	7.99993163613737	43.9311483641184	-65.8037090300603	158.643615398971
6	129.731656868738	49.7546393674575	8.92859574531721	44.2870968425244	-66.3032144244417	158.91765624885
6.024	130.270695398036	49.3061008446628	9.97292483922299	44.6873766637384	-66.8649223515944	159.225848044579
6.048	130.810430606629	48.8569680954103	11.0186250936046	45.0881789944239	-67.4273679391774	159.53443599128
6.072	131.350807853003	48.4073162517808	12.0655436829795	45.4894491930676	-67.99047605511	159.843392768197
6.096	131.891799816403	47.9571418986799	13.1136780460266	45.8911838445748	-68.5542330390136	160.152691054572
6.12	132.433433817585	47.506448451202	14.1630256214251	46.2933863640402	-69.1186457210776	160.462358171162
6.144	132.975682535793	47.0552324942526	15.2135821403066	46.6960499212746	-69.6837072711128	160.772380457588
6.168	133.518559631404	46.6034940278317	16.2653561404077	47.099181346467	-70.2494176891191	161.082757913852
6.192	134.062092425175	46.1512125613718	17.3183954330526	47.5027977150906	-70.8158179562316	161.393517860709
6.216	134.606280917106	45.6983880948729	18.3727017257884	47.9068990271452	-71.3828944120719	161.70466029816
6.24	135.15111144682	45.2450172132404	19.4282750186153	48.3114886977255	-71.95064705664	162.016144245069
6.264	135.696597674694	44.7911067466634	20.4851118964387	48.7165564815477	-72.5190895503143	162.328024342951
6.288	136.242739600728	44.3366532800474	21.5432140668058	49.1221160389902	-73.0882082327165	162.640273271047
6.312	136.789550885301	43.881636322825	22.6026190957571	49.5281707851474	-73.6580304246031	162.952918350115
6.336	137.337058849169	43.4260524599013	23.6633474738601	49.9347377954924	-74.2285561259743	163.265932259398
6.36	137.885236171576	42.9699016912766	24.7254043237566	50.341810239836	-74.7998058273975	163.579342319654
6.384	138.434110173278	42.513173771667	25.7887930605413	50.7493915332728	-75.3717726986835	163.893162191259
6.408	138.983667193898	42.0558755312618	26.8535102691196	51.1574816758027	-75.9444499096432	164.20735089308
6.432	139.533920893812	41.5980035549662	27.9195730249644	51.5660909127095	-76.5178442904658	164.52194940625
6.456	140.085308405129	41.1393324465378	28.9876882526547	51.9755368477897	-77.0924339543931	164.83721727796
